1	1	-50.99	-50.99	  2112   2
2	2	-47.99	-47.99	  2121
3	3	-44.99	-44.99	  2107
4	4	-41.99	-41.99	  2182
5	5	-38.99	-38.99	  2262
6	6	-35.99	-35.99	  2286
7	7	-32.99	-32.99	  2377
8	8	-29.99	-29.99	  2380
9	9	-26.99	-26.99	  2344
10	10	-23.99	-23.99	  2320
11	11	-20.99	-20.99	  2352
12	12	-17.99	-17.99	  2311
13	13	-14.99	-14.99	  2314
14	14	-11.99	-11.99	  2386
15	15	-8.99	-8.99	  2134
16	16	-5.99	-5.99	  2352
17	17	-2.99	-2.99	  2504
18	18	 0.01	 0.01	  2765
19	19	 3.01	 3.01	  2419
20	20	 6.01	 6.01	  2363
21	21	 9.01	 9.01	  2326
22	22	12.00	12.00	  2282
23	23	15.01	15.01	  2265
24	24	18.01	18.01	  2300
25	25	21.01	21.01	  2281
26	26	24.01	24.01	  2273
27	27	27.00	27.00	  2211
28	28	30.00	30.00	  2230
29	29	33.00	33.00	  2183
30	30	36.00	36.00	  2120
31	31	39.00	39.00	  2102
32	32	42.00	42.00	  1937
33	33	45.00	45.00	  1847
34	34	48.00	48.00	  1727
