-50.9931
-47.992
-44.9928
-41.9922
-38.9911
-35.9909
-32.9912
-29.9926
-26.9914
-23.9927
-20.9906
-17.9905
-14.9903
-11.9907
-8.99102
-5.99087
-2.99218
0.0089484
3.00568
6.00632
9.00599
12.0047
15.0053
18.0055
21.0056
24.0058
27.0045
30.0046
33.0023
36.0049
39.0021
42.0023
45.0015
48.0011
